Temperature(K),Lambda[erg*cm**3/s]
9.99999999999999000,2.6644687806318400E-26
10.96985797892380000,2.7646854115897300E-26
12.03377840777580000,2.8687327781821400E-26
13.20088400831410000,2.9768394058257700E-26
14.48118227674530000,3.0890395071992800E-26
15.88565129428050000,3.2055301204466700E-26
17.42633386009650000,3.3265720821976700E-26
19.11644075385700000,3.4522017415448800E-26
20.97046401323230000,3.5826151566829400E-26
23.00430119772910000,3.7181525156622800E-26
25.23539170434760000,3.8588057442017500E-26
27.68286630392060000,4.0047124680436600E-26
30.36771118035450000,4.1562926275213500E-26
33.31294787934670000,4.3135121612799000E-26
36.54383070957250000,4.4765475877327900E-26
40.08806328898460000,4.6458392324001100E-26
43.97603609302720000,4.8212938623130200E-26
48.24108704165360000,5.0031307999091600E-26
52.91978735958440000,5.1918530161637200E-26
58.05225516094890000,5.3870218003412200E-26
63.68249944718580000,5.5883668898045200E-26
69.85879746785250000,5.7980773474193600E-26
76.63410868007450000,6.0155014028272900E-26
84.06652885618320000,6.2409186776046800E-26
92.21978823334320000,6.4749405133154900E-26
101.16379797662000000,6.7178152049711900E-26
110.97524964120700000,6.9698904266996000E-26
121.73827277396600000,7.2318819268527500E-26
133.54515629298900000,7.5041170004889400E-26
146.49713983072800000,7.7870470889687900E-26
160.70528182616300000,8.0817574607764900E-26
176.29141180959400000,8.3899173731315300E-26
193.38917504552300000,8.7106342140439400E-26
212.14517849106200000,9.0444702103546500E-26
232.72024789604000000,9.3917494051592600E-26
255.29080682395100000,9.7523707832083300E-26
280.05038941836300000,1.0126613588237200E-25
307.21129988617500000,1.0514943448581400E-25
337.00643292719200000,1.0917736493468200E-25
369.69127071950200000,1.1335512689874600E-25
405.54607358408200000,1.1768921692375500E-25
444.87828311275800000,1.2218011111573700E-25
488.02515836544300000,1.2682971920868900E-25
535.35666774107200000,1.3164829823241000E-25
587.27866131894800000,1.3663430971140800E-25
644.23635087213600000,1.4179180504522400E-25
706.71812739274900000,1.4712866517591900E-25
775.25974886294600000,1.5263690078366600E-25
850.44893418026700000,1.5832584387010300E-25
932.93040262846800000,1.6420582412033500E-25
1023.41140210545000000,1.7027361283333300E-25
1122.66777351081000000,1.7653283511307200E-25
1231.55060329282000000,1.8298862863880100E-25
1350.99352119802000000,1.8963971778642900E-25
1482.02070579885000000,1.9649603294907200E-25
1625.75566644379000000,2.0357089647826000E-25
1783.43087693190000000,2.1085922328942700E-25
1956.39834351706000000,2.1835939960940300E-25
2146.14119785840000000,2.2611063861351900E-25
2354.28641432241000000,2.3409957849066700E-25
2582.61876068267000000,2.4232342572007500E-25
2833.09610183932000000,2.5079279112156900E-25
3107.86618778201000000,2.5948967814332400E-25
3409.28506974681000000,2.6841846470903100E-25
3739.93730247879000000,2.7760440516775200E-25
4102.65810582719000000,2.8705496522420500E-25
4500.55767570049000000,2.9677255373142700E-25
4937.04785283900000000,3.0676825754626100E-25
5415.87137807947000000,3.1703672147370500E-25
5941.13398496503000000,3.2753711958807800E-25
6517.33960488242000000,3.3822232956733900E-25
7149.42898659757000000,3.4906616384727600E-25
7842.82206133768000000,3.6023544831994500E-25
8603.46441668450000000,3.7242710505497500E-25
9437.87827777538000000,3.8869044862840900E-25
10353.21843295660000000,4.2184733698754400E-25
11357.33358343100000000,5.2229120806947000E-25
12458.83364295000000000,9.3314833454822300E-25
13667.16356462000000000,2.2400823953737000E-24
14992.68432786040000000,5.3644690826424700E-24
16446.76177994660000000,1.0472043763822000E-23
18041.86409392070000000,1.5772501874464700E-23
19791.66867853550000000,1.9578534910738400E-23
21711.17945694500000000,2.3233753798928300E-23
23816.85551976160000000,2.7683007361952500E-23
26126.75225563320000000,3.3475298616619500E-23
28660.67616948250000000,4.1195119011681100E-23
31440.35471591490000000,5.1339832903895400E-23
34489.62260405750000000,6.4179258516985500E-23
37834.62617131930000000,8.0639304961085600E-23
41504.04757850470000000,1.0208263212467200E-22
45529.35074866940000000,1.3057707995789300E-22
49945.05115855130000000,1.6955277587385000E-22
54789.01179593940000000,2.2124989342858000E-22
60102.76782070380000000,2.9065600657752000E-22
65931.88271333540000000,3.8368132057673700E-22
72326.33896483530000000,5.0549827673383800E-22
79340.96665797490000000,6.6091461351913800E-22
87035.91361485160000000,8.5539096728504800E-22
95477.16114208060000000,1.0956629347384000E-21
104737.08979594400000000,1.3825857136624600E-21
114895.10001873000000000,1.7242817705823100E-21
126038.29296797200000000,2.1323326457716500E-21
138262.21737646500000000,2.6344866226279100E-21
151671.68884709200000000,3.2410922754585000E-21
166381.68860761200000000,3.9511895364752500E-21
182518.34943190400000000,4.7624669018449400E-21
200220.03718155800000000,5.6770376741675300E-21
219638.53724165400000000,6.6989824330283200E-21
240940.35602395200000000,7.8098045163282100E-21
264308.14869741000000000,8.9882463475566200E-21
289942.28538828700000000,1.0230410842616900E-20
318062.56927941100000000,1.1543727575660500E-20
348910.12134067700000000,1.2955246626466600E-20
382749.44785163100000000,1.4457356956772600E-20
419870.70844439100000000,1.6021485978448300E-20
460592.20411451000000000,1.7627998022153500E-20
505263.10653356700000000,1.9258424788810000E-20
554266.45206631000000000,2.0892298202303900E-20
608022.42616494200000000,2.2515275843494900E-20
666991.96630301200000000,2.4117761271427300E-20
731680.71434271900000000,2.5688328694634000E-20
802643.35222571700000000,2.7215096487774100E-20
880488.35816434600000000,2.8682452185830100E-20
965883.22411587100000000,3.0077761092563500E-20
1059560.17927761000000000,3.1391531946217100E-20
1162322.46867985000000000,3.2612748708905700E-20
1275051.24071301000000000,3.3739215796801600E-20
1398713.10264723000000000,3.4766422213231800E-20
1534368.40893001000000000,3.5686284054694300E-20
1683180.35333095000000000,3.6499579441985800E-20
1846424.94289554000000000,3.7207067637785200E-20
2025501.93923066000000000,3.7806085283544100E-20
2221946.86093952000000000,3.8302112622940300E-20
2437444.15012222000000000,3.8699852772756300E-20
2673841.61583994000000000,3.8997472337514800E-20
2933166.27839004000000000,3.9200342450529000E-20
3217641.75025073000000000,3.9313897041756700E-20
3529707.30273064000000000,3.9339864788081100E-20
3872038.78181255000000000,3.9284615753427700E-20
4247571.55253690000000000,3.9154020063990600E-20
4659525.66866467000000000,3.8951702292150900E-20
5111433.48344016000000000,3.8683542283866600E-20
5607169.93820545000000000,3.8356413323418200E-20
6150985.78858050000000000,3.7973859263274400E-20
6747544.05311069000000000,3.7540771720586800E-20
7401959.99691563000000000,3.7063736941985100E-20
8119844.99318400000000000,3.6547044484536600E-20
8907354.63861044000000000,3.5995025584703600E-20
9771241.53534650000000000,3.5412440458793600E-20
10718913.19205120000000000,3.4802388856708500E-20
11758495.54052150000000000,3.4168823393977600E-20
12898902.61253300000000000,3.3516015822724500E-20
14149912.97434570000000000,3.2847048809971400E-20
15522253.57427040000000000,3.2163906636456000E-20
17027691.72225900000000000,3.1470122727861600E-20
18679135.99020780000000000,3.0768424798736300E-20
20490746.89815840000000000,3.0060848843862100E-20
22478058.33548720000000000,2.9349390358368600E-20
24658110.75822600000000000,2.8635531702798300E-20
27049597.30463130000000000,2.7921176402545700E-20
29673024.08188870000000000,2.7207648268375300E-20
32550885.99835050000000000,2.6496126713522700E-20
35707859.64900460000000000,2.5787803608895000E-20
39171014.90809250000000000,2.5083589378439300E-20
42970047.04320840000000000,2.4384471277051000E-20
47137531.34116720000000000,2.3691677914747000E-20
51709202.42896750000000000,2.3005736559214600E-20
56724260.68491970000000000,2.2327298122433700E-20
62225708.36730230000000000,2.1657524197554200E-20
68260718.34272390000000000,2.0996923070245100E-20
74881038.57590020000000000,2.0346084038653200E-20
82143435.84919420000000000,1.9706139571117700E-20
90110182.51665010000000000,1.9077507914341800E-20
98849590.46625580000000000,1.8460671071927600E-20
108436596.86896000000000000,1.7856682567278900E-20
118953406.73703200000000000,1.7266008365525300E-20
130490197.80144000000000000,1.6689005621111400E-20
143145893.75234800000000000,1.6126651146464600E-20
157029012.47293700000000000,1.5579359040277600E-20
172258596.53987800000000000,1.5047248940052300E-20
188965233.96912100000000000,1.4531088550976400E-20
207292177.95953700000000000,1.4031207763340700E-20
227396575.23579300000000000,1.3547392140314000E-20
249450813.52303100000000000,1.3080100009058800E-20
273643999.70746600000000000,1.2629489195584200E-20
300183581.35755900000000000,1.2194973146191700E-20
329297125.50971400000000000,1.1776561694701200E-20
361234269.97094300000000000,1.1374094188245700E-20
396268863.87014700000000000,1.0986542166934300E-20
434701315.81250100000000000,1.0613395836096200E-20
476861169.77144700000000000,1.0254060824546300E-20
523109930.80562500000000000,9.9070168363764300E-21
573844164.83024000000000000,9.5711104358888300E-21
629498899.02218800000000000,9.2452036847519300E-21
690551352.01623100000000000,8.9272135504112400E-21
757525025.87719200000000000,8.6153706248751800E-21
830994194.93534200000000000,8.3077491937159900E-21
911588829.97508300000000000,8.0018702545765400E-21
1000000000.00000000000000000,7.6953891340342800E-21