Temperature(K),Lambda_th[erg*cm**3/s]
10.000000101073988,3.0304844897844904e-29
10.969863574203536,3.841015918408786e-29
12.03378711685707,4.799391452544396e-29
13.20089271777319,5.923496368599771e-29
14.481185941862277,7.232683755426938e-29
15.88566205450391,8.747648631158044e-29
17.426346839004427,1.0467755958528688e-28
19.116450970603292,1.242750473459721e-28
20.9704708981274,1.4646203142956265e-28
23.00431774898979,1.7138654620710244e-28
25.23541043642245,1.9916411730784598e-28
27.68287713592541,2.2948504441477853e-28
30.367724854698267,2.6256678043983367e-28
33.31297238642322,2.984971804705579e-28
36.54385738875941,3.3725255015109966e-28
40.0880745302871,3.78793680202292e-28
43.97606196389575,4.226309558224231e-28
48.24279135873966,4.690871449389153e-28
52.92301498368592,5.184798112875708e-28
58.05589160875661,5.668677700779543e-28
63.68400987808957,6.102899653857046e-28
69.85939376976988,6.638866453971376e-28
76.63467535548266,7.213980045760957e-28
84.06709735816462,7.838219633280233e-28
92.22041740489456,8.52156943979554e-28
101.16449015977963,9.275836054202832e-28
110.97600935558442,1.0118577157615816e-27
121.73916021434127,1.1067942441620917e-27
133.5461665302115,1.2136404416224901e-27
146.49827238181282,1.3352756783977394e-27
160.7065337318293,1.4767221403690898e-27
176.29285932493931,1.6503954618727516e-27
193.39082145585215,1.8475128685387495e-27
212.14699002104953,2.0684299480832272e-27
232.7222832013021,2.3127718603784863e-27
255.29318384422882,2.579122246646945e-27
280.0531627172988,2.8653632838686396e-27
307.2144374183889,3.1713979809913424e-27
337.0098873637507,3.500469157165043e-27
369.6950664676128,3.852700456851874e-27
405.5502720601452,4.228532181640512e-27
444.88312873786316,4.628819242304416e-27
488.0309995249612,5.0509556514905275e-27
535.3634294989231,5.4974894168467136e-27
587.2860821471621,5.9681185489271506e-27
644.2442320250068,6.462432549773135e-27
706.7270658102611,6.97953776525195e-27
775.2699978824245,7.51416016881077e-27
850.4608286719986,8.070982801791686e-27
932.9440326077927,8.649812463359355e-27
1023.4269848077605,9.250499869673026e-27
1122.685033397279,9.872957443269428e-27
1231.5701846312797,1.0511560449347029e-26
1351.0158120834049,1.1168195987849243e-26
1482.0462781774806,1.1848667928018446e-26
1625.7847608116629,1.2554856546414437e-26
1783.4638844170995,1.3284575606136672e-26
1956.4350635750102,1.403414028922431e-26
2146.1823905964325,1.4828834364981192e-26
2354.3336083801346,1.5658347248730997e-26
2582.6735328214704,1.6518866395214486e-26
2833.1582653215246,1.741091565764877e-26
3107.9367968283045,1.8319252171002937e-26
3409.3646853420064,1.924747884330283e-26
3740.027535255078,2.020994404431454e-26
4102.759701576198,2.1213081108616704e-26
4500.672195203616,2.2259983971883419e-26
4937.179749890206,2.335341226733918e-26
5416.029447681824,2.4487508604480424e-26
5941.396048689046,2.5628454170047488e-26
6518.202338300702,2.6730808398974793e-26
7152.280014997389,2.777315266739699e-26
7849.756876317062,2.892303019862588e-26
8652.81796699808,3.099513200201196e-26
9655.65061629947,3.9836567105164563e-26
10806.03933792908,1.1583745278418935e-25
12117.713293323974,8.842823025101517e-25
13255.915306791949,4.6598002180950386e-24
14177.65841035829,1.4788339194328382e-23
15050.771514928016,2.836855712309567e-23
15814.3580962915,4.8711668538264057e-23
16879.91667272771,6.329062017607357e-23
17970.69440927007,7.702867759225095e-23
19639.115795357382,7.678892109871701e-23
21923.25993656225,6.987905765201736e-23
24356.37960190079,6.477935320554778e-23
27024.62662512457,6.409232429587079e-23
29869.568654565624,6.70888569790309e-23
33089.11260528893,7.317976053957831e-23
36851.471219639374,8.283936261187265e-23
40829.05193596031,9.587077383763587e-23
45121.40686108313,1.1314649922322081e-22
49681.11379743557,1.3556950281515103e-22
54554.94612088801,1.6340266798911186e-22
59826.64016341674,1.9784512980292098e-22
65396.56635567189,2.3804269011627357e-22
71338.95413997307,2.831299149781153e-22
77698.43598891287,3.2421528503221716e-22
84729.83475513048,3.5892473745554485e-22
92684.78779153449,3.869701405466219e-22
101827.34730561965,4.0510526570985233e-22
112256.56785695782,4.056979272431947e-22
123984.72109851432,3.9024268190033664e-22
136854.50083093243,3.8257026778857534e-22
150758.4317148243,3.8439623697691304e-22
165830.5225198487,3.904664111876088e-22
182205.22571656178,3.9602225874463214e-22
200030.31131646998,3.9898967228833807e-22
219535.1496879222,4.030917403676229e-22
240863.65065307057,3.962380840814931e-22
264235.9347231939,3.618507348809431e-22
289881.135030122,3.012980814649279e-22
318025.90500754194,2.3085809692238247e-22
348861.6170663206,1.825498759512513e-22
382747.12313705764,1.586891536702731e-22
419893.6325468139,1.472247524983997e-22
460609.8632680751,1.420665333890318e-22
505277.0996127384,1.3875999338073955e-22
554277.3066423043,1.3298026644927258e-22
608031.592487061,1.244740687129291e-22
667000.0391456685,1.1755514272107323e-22
731687.4361085214,1.1383038779252788e-22
802648.3253923735,1.137313307636554e-22
880493.5453667801,1.1556348812398586e-22
965887.0635819036,1.1569504350891829e-22
1059563.4823115775,1.1345658439839322e-22
1162326.0114479093,1.0932427191549414e-22
1275054.7770883504,1.0398427782928772e-22
1398715.4269311125,9.74083911705478e-23
1534370.6109299292,8.942202018816652e-23
1683181.468531201,7.950483699479665e-23
1846425.0322580629,6.846490882640727e-23
2025502.1232677407,5.755319251516531e-23
2221947.408054305,4.8151953041360616e-23
2437447.116213315,4.1159383291410654e-23
2673845.8017090466,3.564253447247217e-23
2933170.7999026286,3.10964463795195e-23
3217646.5709865103,2.730649739798354e-23
3529712.0074408157,2.4338096932048502e-23
3872040.080026449,2.2180513468735565e-23
4247571.552536902,2.0695966192218925e-23
4659525.668664679,1.9679822534154198e-23
5111433.483440166,1.8990023225053464e-23
5607169.938205457,1.8552761177449802e-23
6150985.788580505,1.808650122340561e-23
6747544.053110702,1.7765254001063973e-23
7401959.9969156375,1.7603097771941565e-23
8119844.993184008,1.7621787722620704e-23
8907354.63861044,1.786282785670501e-23
9771241.535346502,1.7763089340412482e-23
10718913.192051286,1.761498283359311e-23
11758495.540521577,1.7261582518277643e-23
12898902.61253308,1.6705162491114827e-23
14149912.974345759,1.6069386159813542e-23
15522253.574270483,1.5144192874033632e-23
17027691.72225901,1.4183615621358225e-23
18679135.99020785,1.3369516736348303e-23
20490746.89815846,1.274539878774014e-23
22478058.33548725,1.228592982773812e-23
24658110.758226037,1.1988832013069262e-23
27049597.304631364,1.1826583310843923e-23
29673024.081888717,1.1772905678858229e-23
32550885.998350564,1.1819706563665869e-23
35707859.64900462,1.1966343371325459e-23
39171014.90809261,1.2182196070791783e-23
42970047.043208435,1.2454055281484335e-23
47137531.3411673,1.2772668999707526e-23
51709202.42896755,1.3131546717977368e-23
56724260.684919775,1.3528115445190957e-23
62225708.36730231,1.3990944858151664e-23
68260718.34272395,1.4475417421320308e-23
74881038.5759003,1.4976159397331996e-23
82143435.84919423,1.5488557983155666e-23
90110182.5166502,1.6008740439501253e-23
98849590.46625584,1.653081735672643e-23
108436596.86896089,1.7104622707180513e-23
118953406.73703206,1.7697361963957144e-23
130490197.8014402,1.830520702151238e-23
143145893.75234812,1.8931307964048047e-23
157029012.47293776,1.957620403713318e-23
172258596.53987834,2.0283656773354313e-23
188965233.96912113,2.1013219365322692e-23
207292177.95953697,2.178979611450705e-23
227396575.23579317,2.2635406625387745e-23
249450813.52303168,2.3522760133768776e-23
273643999.70746666,2.445219486241832e-23
300183581.35755914,2.5427167250610344e-23
329297125.5097149,2.649021718808087e-23
361234269.97094375,2.766127444491503e-23
396268863.87014776,2.889250507336887e-23
434701315.8125018,3.018469974432637e-23
476861169.77144736,3.154154699938798e-23
523109930.8056258,3.2965734770475326e-23
573844164.8302406,3.4487067250387924e-23
629498899.0221888,3.6185231471089497e-23
690551352.0162318,3.7978072582856333e-23
757525025.877192,3.9872236430061104e-23
830994194.9353421,4.1875038437092707e-23
911588829.975084,4.399489753113259e-23
1000000000.0,4.6241498068163155e-23